-629350.01	-889125.01	131
-629325.01	-889125.01	131
-629300.01	-889125	131
-629275	-889125	131
-629250	-889124.99	131
-629224.99	-889125	131
-629199.99	-889124.99	131
-629174.99	-889124.98	131
-629149.98	-889124.98	131
-629124.97	-889124.97	131
-629099.97	-889124.96	131
-629074.96	-889124.96	131
-629050.03	-889125.04	131
-629025.02	-889125.03	131
-629000.01	-889125.03	131
-628975.02	-889125.02	131
-628950.01	-889125.01	131
-628925	-889125.01	131
-628924.97	-889149.96	131
-628900.03	-889150.04	131
-628875.02	-889150.03	131
-628850.01	-889150.03	131
-628825.01	-889150.01	131
-628799.97	-889174.96	131
-628775.02	-889175.04	131
-628750.01	-889175.03	131
-628724.98	-889199.97	131
-628699.97	-889199.96	131
-628674.99	-889224.99	131
-628649.99	-889224.97	131
-628625	-889250.01	131
-628599.99	-889250	131
-628574.98	-889249.98	131
-628550.01	-889275.01	131
-628525	-889274.99	131
-628500.01	-889300.03	131
-628474.97	-889324.96	131
-628450.02	-889325.03	131
-628449.99	-889349.98	131
-628425.01	-889375	131
-628399.99	-889374.99	131
-628400.02	-889400.03	131
-628374.97	-889424.96	131
-628350.03	-889425.03	131
-628324.98	-889449.96	131
-628325.01	-889475	131
-628299.98	-889474.99	131
-628275	-889500.01	131
-628250.02	-889525.02	131
-628225.03	-889550.04	131
-628199.98	-889574.96	131
-628175.02	-889575.04	131
-628149.97	-889599.96	131
-628149.99	-889625	131
-628125	-889650.02	131
-628099.99	-889649.99	131
-628075	-889675	131
-628050.01	-889700.01	131
-628025.02	-889725.02	131
-628000.03	-889750.03	131
-627975.03	-889775.04	131
-627949.98	-889799.95	131
-627924.98	-889824.96	131
-627900.02	-889825.03	131
-627875.02	-889850.04	131
-627850.02	-889875.04	131
-627825.02	-889900.04	131
-627799.96	-889924.96	131
-627774.98	-889949.95	131
-627749.97	-889974.95	131
-627725.01	-889975.01	131
-627700.01	-890000.02	131
-627650	-890050.02	131
-627625.01	-890075	131
-627600	-890100	131
-627575	-890125	131
-627549.99	-890150	131
-627524.99	-890174.98	131
-627499.98	-890199.98	131
-627474.97	-890224.97	131
-627449.97	-890249.95	131
-627425.01	-890250.01	131
-627400	-890275	131
-627374.97	-890274.96	131
-627350.02	-890300.04	131
-627325.02	-890325.02	131
-627300.01	-890350.01	131
-627275	-890374.99	131
-627249.98	-890399.98	131
-627225.02	-890400.03	131
-627200	-890425.01	131
-627175	-890449.99	131
-627149.98	-890474.97	131
-627125.03	-890500.04	131
-627099.99	-890500	131
-627074.98	-890524.97	131
-627050.02	-890525.02	131
-627024.98	-890524.98	131
-627000.03	-890550.04	131
-626974.99	-890550	131
-626949.98	-890574.97	131
-626925	-890575.02	131
-626899.99	-890599.99	131
-626824.97	-890649.98	131
-626800.02	-890675.03	131
-626774.98	-890674.99	131
-626750.03	-890700.04	131
-626725	-890725.01	131
-626699.97	-890724.96	131
-626675	-890750.02	131
-626649.98	-890749.96	131
-626625.01	-890775.02	131
-626599.98	-890774.96	131
-626575	-890775	131
-626550.03	-890775.04	131
-626525.01	-890800	131
-626500.03	-890800.03	131
-626474.99	-890799.98	131
-626450.01	-890800.02	131
-626424.99	-890824.97	131
-626400.02	-890825.01	131
-626374.98	-890824.95	131
-626350	-890850.01	131
-626325.03	-890850.04	131
-626300	-890874.99	131
-626275.03	-890900.04	131
-626250	-890924.99	131
-626225.02	-890950.04	131
-626199.98	-890949.98	131
-626175.02	-890975.02	131
-626149.97	-890974.96	131
-626149.98	-890999.97	131
-626125	-891000	131
-626125.01	-891025.01	131
-626100.04	-891025.03	131
-626099.97	-891049.96	131
-626075	-891075	131
-626050.03	-891100.03	131
-626049.96	-891124.96	131
-626049.96	-891124.96	131
-626024.98	-891124.98	131
-626024.99	-891149.99	131
-626000.01	-891150.02	131
-626000.02	-891175.02	131
-626000.02	-891200.03	131
-625974.98	-891199.96	131
-625974.99	-891224.97	131
-625950	-891250.02	131
-625925.02	-891275.05	131
-625899.98	-891274.98	131
-625875.01	-891275	131
-625850.01	-891300.04	131
-625824.97	-891299.96	131
-625799.99	-891299.98	131
-625775	-891325.02	131
-625750.03	-891325.04	131
-625724.98	-891349.97	131
-625699.99	-891350	131
-625675.01	-891375.02	131
-625650.04	-891375.03	131
-625624.98	-891399.98	131
-625600	-891399.99	131
-625575.02	-891425.01	131
-625550.03	-891425.03	131
-625524.98	-891449.96	131
-625499.99	-891449.98	131
-625475	-891475	131
-625450.01	-891475.02	131
-625425.02	-891475.04	131
-625399.96	-891474.96	131
-625374.98	-891499.98	131
-625349.99	-891524.99	131
-625325	-891525.01	131
-625300.02	-891550.02	131
-625275.02	-891550.04	131
-625249.97	-891574.96	131
-625224.98	-891574.97	131
-625199.99	-891599.98	131
-625150.01	-891600	131
-625125.01	-891625.02	131
-625100.01	-891625.03	131
-625075.02	-891625.04	131
-625049.97	-891649.96	131
-625024.98	-891649.96	131
-624999.99	-891674.97	131
-624974.98	-891674.99	131
-624949.99	-891674.99	131
-624925	-891699.99	131
-624900.01	-891700	131
-624875	-891700.01	131
-624850.01	-891725.01	131
-624825.02	-891725.02	131
-624800.01	-891725.03	131
-624775.02	-891750.03	131
-624750.03	-891750.03	131
-624725.02	-891750.04	131
-624700.02	-891775.03	131
-624675.02	-891775.04	131
-624650.03	-891775.04	131
-624624.96	-891774.96	131
-624600.03	-891800.04	131
-624574.96	-891799.96	131
-624549.97	-891799.95	131
-624525.02	-891825.05	131
-624500.03	-891825.04	131
-624474.97	-891824.95	131
-624450.03	-891850.03	131
-624425.03	-891850.04	131
-624400.02	-891875.02	131
-624375.02	-891875.02	131
-624350	-891900.02	131
-624325.02	-891900.01	131
-624300.01	-891900.01	131
-624274.99	-891925	131
-624249.99	-891925	131
-624225	-891924.99	131
-624225	-891924.99	131
-624199.98	-891949.98	131
-624174.98	-891949.98	131
-624149.97	-891974.96	131
-624124.97	-891974.95	131
-624100.01	-892000.03	131
-624075.01	-892000.02	131
-624050.01	-892000.02	131
-624025	-892024.99	131
-624000	-892024.98	131
-623974.98	-892024.99	131
-623949.97	-892049.96	131
-623925.03	-892050.04	131
-623900.01	-892075.02	131
-623875.01	-892075.01	131
-623849.99	-892099.98	131
-623824.97	-892124.96	131
-623800.02	-892150.02	131
-623775	-892174.99	131
-623749.97	-892199.97	131
-623724.97	-892199.95	131
-623700.02	-892225.01	131
-623675	-892225	131
-623649.98	-892249.97	131
-623624.96	-892249.96	131
-623600.01	-892275.01	131
-623574.99	-892299.97	131
-623549.97	-892299.97	131
-623525.02	-892325.02	131
-623500	-892325.01	131
-623474.98	-892349.97	131
-623450.02	-892350.04	131
-623425	-892375	131
-623399.98	-892374.99	131
-623375.02	-892400.04	131
-623325.01	-892399.99	131
-623299.96	-892424.96	131
-623275.01	-892425.03	131
-623249.99	-892449.98	131
-623225.02	-892475.03	131
-623200.01	-892475.01	131
-623174.98	-892499.96	131
-623150.03	-892500.03	131
-623125	-892524.98	131
-623099.98	-892524.96	131
-623075	-892550.01	131
-623049.98	-892549.98	131
-623024.97	-892549.96	131
-623000.01	-892550.03	131
-622974.98	-892574.97	131
-622950.01	-892600.01	131
-622924.96	-892624.96	131
-622899.99	-892649.99	131
-622875.02	-892675.03	131
-622850.01	-892675	131
-622824.97	-892674.98	131
-622800	-892700.01	131
-622774.99	-892699.98	131
-622750.03	-892700.04	131
-622724.98	-892724.99	131
-622699.97	-892724.95	131
-622674.99	-892749.98	131
-622649.96	-892749.96	131
-622625.01	-892750.01	131
-622600.03	-892775.04	131
-622575	-892775.01	131
-622549.99	-892774.98	131
-622525.01	-892800	131
-622499.98	-892799.97	131
-622475	-892824.99	131
-622425.03	-892875.05	131
-622399.98	-892899.97	131
-622375	-892924.99	131
-622349.97	-892924.96	131
-622324.98	-892949.98	131
-622300.02	-892950.04	131
-622274.97	-892974.96	131
-622250	-892975.02	131
-622225.02	-893000.03	131
-622199.99	-893000	131
-622175	-893025.01	131
-622149.97	-893024.97	131
-622124.98	-893049.98	131
-622099.99	-893074.99	131
-622075.03	-893075.05	131
-622049.97	-893099.96	131
-622025.01	-893100.01	131
-622000.02	-893125.02	131
-621999.99	-893149.98	131
-621975.02	-893150.03	131
-621950.03	-893175.04	131
-621925	-893174.99	131
-621900.01	-893200	131
-621874.98	-893199.95	131
-621849.97	-893224.97	131
-621824.97	-893249.97	131
-621800	-893250.01	131
-621775.01	-893275.02	131
-621749.98	-893274.97	131
-621725.01	-893275.01	131
-621700.01	-893300.01	131
-621674.97	-893299.97	131
-621650	-893300.01	131
-621625	-893325.01	131
-621599.97	-893324.95	131
-621574.97	-893349.95	131
-621549.99	-893350	131
-621524.99	-893374.99	131
-621500.03	-893375.03	131
-621474.98	-893374.98	131
-621450.02	-893375.02	131
-621424.97	-893374.97	131
-621425.02	-893400.01	131
-621399.97	-893399.96	131
-621375.01	-893399.99	131
-621350.03	-893400.04	131
-621349.99	-893424.99	131
-621324.98	-893449.98	131
-621300.02	-893450.01	131
-621275.01	-893475	131
-621249.99	-893500	131
-621224.98	-893524.98	131
-621200.02	-893525.01	131
-621175.01	-893549.99	131
-621150.03	-893550.03	131
-621125.02	-893575.02	131
-621100.01	-893600	131
-621074.99	-893624.98	131
-621050.01	-893625.01	131
-621049.98	-893649.96	131
-621050.01	-893675	131
-621025.03	-893675.03	131
-620999.98	-893674.97	131
-621000.01	-893700.01	131
-620975	-893724.99	131
-620950.02	-893725.02	131
-620925	-893750	131
-620900.02	-893750.03	131
-620875	-893775	131
-620849.98	-893799.98	131
-620825	-893800.01	131
-620799.98	-893824.98	131
-620775.02	-893850.04	131
-620750.02	-893875.01	131
-620700.03	-893925.04	131
-620674.99	-893924.97	131
-620650.02	-893950.03	131
-620625	-893975	131
-620599.97	-893999.97	131
-620574.99	-893999.99	131
-620550.02	-894025.05	131
-620525.01	-894050	131
-620499.98	-894074.97	131
-620475.01	-894100.02	131
-620449.98	-894124.99	131
-620425.03	-894150.03	131
-620399.99	-894174.99	131
-620375.03	-894200.03	131
-620350	-894225	131
-620325.02	-894250.05	131
-620300	-894275	131
-620275.03	-894300.05	131
-620250	-894324.99	131
-620225.02	-894350.04	131
-620200	-894374.99	131
-620175.02	-894400.04	131
-620149.99	-894424.98	131
-620150.01	-894450.01	131
-620124.97	-894474.95	131
-620099.99	-894500	131
-620075.02	-894525.03	131
-620049.99	-894549.97	131
-620050	-894575	131
-620025.03	-894600.03	131
-620099.99	-894500	131
-620075.02	-894525.03	131
-620049.99	-894549.97	131
-620050	-894575	131
-620025.03	-894600.03	131
-619999.98	-894624.98	131
-620000	-894650	131
-620000.01	-894675.03	131
-619974.97	-894699.97	131
-619975	-894724.99	131
-619950.02	-894750.02	131
-619949.96	-894774.96	131
-619949.98	-894799.97	131
-619925.01	-894825	131
-619925.03	-894850.02	131
-619924.97	-894874.96	131
-619924.99	-894899.98	131
-619900	-894925.01	131
-619900.02	-894950.03	131
-619899.97	-894974.96	131
-619899.99	-894999.98	131
-619900.01	-895024.99	131
-619875.02	-895050.02	131
-619874.97	-895074.95	131
-619874.98	-895099.97	131
-619875	-895124.99	131
-619850.01	-895150.02	131
-619850.02	-895175.04	131
-619849.98	-895199.96	131
-619849.99	-895224.98	131
-619825	-895250.01	131
-619825.01	-895275.03	131
-619800.03	-895300.04	131
-619799.97	-895324.97	131
-619799.99	-895349.98	131
-619775.01	-895375	131
-619775.02	-895400.02	131
-619775.02	-895425.04	131
-619775.02	-895400.02	131
-619775.02	-895425.04	131
-619749.97	-895449.96	131
-619749.99	-895474.97	131
-619725	-895499.99	131
-619725.01	-895525.01	131
-619725.02	-895550.02	131
-619725.03	-895575.04	131
-619699.97	-895599.97	131
-619699.99	-895624.98	131
-619700	-895649.99	131
-619700	-895675.01	131
-619675.02	-895700.01	131
-619675.02	-895725.04	131
-619674.97	-895749.96	131
-619674.98	-895774.97	131
-619674.99	-895799.98	131
-619675	-895825	131
-619650	-895850.01	131
-619650.01	-895875.02	131
-619650.02	-895900.03	131
-619649.97	-895924.96	131
-619624.98	-895949.96	131
-619624.99	-895974.97	131
-619624.99	-895999.98	131
-619625	-896025	131
-619625	-896050.01	131
-619600.01	-896050	131
-619600.01	-896075.01	131
-619600.02	-896100.03	131
-619600.02	-896125.04	131
-619575.02	-896150.04	131
-619574.98	-896174.95	131
-619574.98	-896199.97	131
-619549.98	-896224.97	131
-619549.98	-896249.98	131
-619550	-896274.98	131
-619550	-896300	131
-619524.99	-896325	131
-619525.01	-896350	131
-619500.01	-896425.02	131
-619475	-896450.02	131
-619475.01	-896475.02	131
-619475.02	-896500.03	131
-619450.01	-896525.03	131
-619450.02	-896550.03	131
-619450.03	-896575.04	131
-619449.97	-896599.95	131
-619425.02	-896625.04	131
-619425.03	-896650.04	131
-619424.97	-896674.96	131
-619424.97	-896699.97	131
-619424.98	-896724.97	131
-619424.98	-896724.97	131
-619424.98	-896749.98	131
-619424.98	-896749.98	131
-619424.99	-896774.98	131
-619424.99	-896799.99	131
-619399.98	-896824.98	131
-619399.98	-896849.98	131
-619399.98	-896874.99	131
-619400	-896899.99	131
-619374.99	-896924.97	131
-619374.99	-896949.98	131
-619374.99	-896974.99	131
-619349.98	-896999.97	131
-619349.99	-897024.97	131
-619349.99	-897049.98	131
-619349.98	-897074.98	131
-619324.97	-897099.97	131
-619324.98	-897124.97	131
-619324.98	-897149.96	131
-619324.98	-897174.97	131
-619324.99	-897199.97	131
-619300.03	-897225.04	131
-619299.97	-897249.95	131
-619299.96	-897274.96	131
-619299.97	-897299.96	131
-619299.97	-897324.96	131
-619299.98	-897349.96	131
-619299.97	-897374.97	131
-619275.03	-897500.03	131
-619275.03	-897525.03	131
-619275.03	-897550.03	131
-619275.03	-897575.03	131
-619275.03	-897600.03	131
-619275.02	-897625.03	131
-619275.02	-897650.03	131
-619275.02	-897675.03	131
-619275.02	-897700.03	131
-619275.01	-897725.03	131
-619275.02	-897750.02	131
-619250	-897774.99	131
-619249.99	-897799.99	131
-619249.99	-897824.99	131
-619250	-897849.98	131
-619249.99	-897874.99	131
-619249.98	-897899.99	131
-619225.03	-897925.04	131
-619225.02	-897950.04	131
-619225.03	-897975.03	131
-619225.02	-898000.04	131
-619225.02	-898025.03	131
-619225.01	-898050.03	131
-619199.99	-898074.99	131
-619199.99	-898099.98	131
-619199.98	-898124.99	131
-619199.98	-898149.98	131
-619175.02	-898175.03	131
-619175.02	-898200.02	131
-619175.01	-898225.02	131
-619175.01	-898250.02	131
-619175.01	-898275.01	131
-619149.98	-898299.97	131
-619149.98	-898324.96	131
-619149.97	-898349.96	131
-619150.03	-898375.04	131
-619150.03	-898400.04	131
-619125	-898424.99	131
-619124.98	-898474.98	131
-619124.98	-898499.98	131
-619124.97	-898524.97	131
-619124.98	-898549.95	131
-619100	-898575	131
-619099.99	-898600	131
-619099.98	-898624.99	131
-619099.99	-898649.98	131
-619099.98	-898674.97	131
-619099.97	-898699.97	131
-619099.97	-898724.95	131
-619074.99	-898750	131
-619074.99	-898774.99	131
-619074.98	-898799.98	131
-619050.01	-898825.02	131
-619050.01	-898850.01	131
-619050	-898875	131
-619050	-898899.99	131
-619049.98	-898924.98	131
-619049.98	-898949.97	131
-619049.97	-898974.96	131
-619050.03	-899000.03	131
-619050.01	-899025.03	131
-619024.98	-899049.98	131
-619024.97	-899074.96	131
-619025.03	-899100.04	131
-618999.99	-899124.99	131
-618999.98	-899149.97	131
-618999.97	-899174.96	131
-618975	-899200	131
-618950.02	-899225.03	131
-618950.01	-899250.02	131
-618949.99	-899275.01	131
-618925.03	-899300.03	131
-618899.98	-899324.97	131
-618875.01	-899325.02	131
-618849.96	-899349.96	131
-618824.99	-899374.98	131
-618824.99	-899374.98	131
-618800.01	-899400.01	131
-618775.02	-899425.04	131
-618775.02	-899450.02	131
-618749.96	-899474.96	131
-618724.99	-899499.97	131
-618700	-899525	131
-618699.99	-899549.98	131
-618675	-899575.01	131
-618674.99	-899599.99	131
-618650	-899625.01	131
-618649.99	-899649.99	131
-618625.01	-899675.01	131
-618624.99	-899699.99	131
-618600	-899725.01	131
-618599.99	-899749.99	131
-618575.01	-899775	131
-618574.98	-899799.99	131
-618574.97	-899824.97	131
-618575.02	-899850.04	131
-618549.97	-899874.96	131
-618550.02	-899900.03	131
-618524.97	-899924.95	131
-618499.97	-899949.97	131
-618500.02	-899975.04	131
-618500.01	-900000.02	131
-618475.01	-900025.03	131
-618475.01	-900050	131
-618474.99	-900074.98	131
-618474.97	-900099.96	131
-618475.02	-900125.03	131
-618474.99	-900150.01	131
-618474.99	-900174.98	131
-618474.97	-900199.96	131
-618475.01	-900225.03	131
-618475	-900250	131
-618474.98	-900274.98	131
-618475	-900349.99	131
-618474.98	-900374.97	131
-618475.03	-900400.03	131
-618475.01	-900425.02	131
-618475	-900449.99	131
-618474.97	-900474.97	131
-618475.02	-900500.03	131
-618475.01	-900525	131
-618474.99	-900549.98	131
-618474.97	-900574.96	131
-618475.01	-900600.02	131
-618475	-900624.99	131
-618474.98	-900649.97	131
-618475.03	-900675.03	131
-618475	-900700.01	131
-618474.98	-900724.99	131
-618450.01	-900725	131
-618449.99	-900749.98	131
-618449.96	-900774.96	131
-618450.01	-900800.02	131
-618450	-900824.99	131
-618424.99	-900849.99	131
-618424.97	-900874.96	131
-618425.02	-900900.03	131
-618424.99	-900925	131
-618424.97	-900949.97	131
-618425.03	-900975.03	131
-618425	-901000	131
-618424.98	-901024.98	131
-618425.02	-901050.04	131
-618400.02	-901075.03	131
-618400.01	-901100	131
-618399.98	-901124.97	131
-618400.02	-901150.04	131
-618400.01	-901175	131
-618399.98	-901199.98	131
-618400.03	-901225.03	131
-618400	-901250.01	131
-618399.99	-901274.97	131
-618400.02	-901300.04	131
-618400	-901325.01	131
-618399.99	-901274.97	131
-618400.02	-901300.04	131
-618400	-901325.01	131
-618399.99	-901349.97	131
-618400.02	-901375.04	131
-618375.02	-901400.02	131
-618374.99	-901425	131
-618374.97	-901449.96	131
-618375.02	-901475.02	131
-618375	-901499.98	131
-618349.98	-901524.97	131
-618350.03	-901550.03	131
-618350	-901575	131
-618349.98	-901599.97	131
-618325.03	-901625.05	131
-618325	-901650.01	131
-618324.98	-901674.98	131
-618325.02	-901700.04	131
-618324.99	-901725.01	131
-618300.01	-901725.02	131
-618299.99	-901749.98	131
-618274.98	-901774.96	131
-618250.02	-901800.04	131
-618225.01	-901825.01	131
-618199.99	-901849.99	131
-618174.98	-901874.96	131
-618150.01	-901900.04	131
-618125	-901925.01	131
-618099.98	-901949.98	131
-618074.97	-901974.95	131
-618050.01	-902000.02	131
-618025	-902024.98	131
-617999.98	-902049.95	131
-617975.02	-902075.01	131
-617950	-902099.98	131
-618025	-902024.98	131
-617999.98	-902049.95	131
-617975.02	-902075.01	131
-617950	-902099.98	131
-617924.96	-902124.96	131
-617900	-902150.02	131
-617874.99	-902174.97	131
-617850.03	-902200.03	131
-617825	-902224.99	131
-617799.98	-902249.96	131
-617775.01	-902275.01	131
-617749.98	-902299.97	131
-617750.02	-902325.02	131
-617725.02	-902325.03	131
-617724.98	-902349.98	131
-617699.98	-902349.99	131
-617700.02	-902375.04	131
-617675.02	-902375.04	131
-617675	-902399.98	131
-617650	-902399.99	131
-617625.03	-902425.04	131
-617599.99	-902449.99	131
-617575.02	-902475.04	131
-617550	-902499.99	131
-617525	-902499.99	131
-617500.02	-902525.03	131
-617474.98	-902549.99	131
-617450.02	-902575.02	131
-617449.98	-902599.98	131
-617425.02	-902625.02	131
-617349.99	-902675	131
-617325.03	-902700.04	131
-617299.98	-902724.98	131
-617275.01	-902750.02	131
-617249.97	-902774.96	131
-617225	-902799.99	131
-617200.01	-902825.03	131
-617174.98	-902849.97	131
-617150	-902874.99	131
-617150.03	-902900.03	131
-617124.98	-902924.98	131
-617100	-902950	131
-617075.03	-902975.03	131
-617049.97	-902999.97	131
-617024.99	-903024.99	131
-617000.01	-903050.01	131
-616975.01	-903049.99	131
-616950.01	-903075.03	131
-616924.97	-903099.96	131
-616899.98	-903124.97	131
-616900	-903150.02	131
-616875.02	-903175.03	131
-616849.97	-903199.96	131
-616824.98	-903224.98	131
-616799.98	-903224.95	131
-616800	-903249.99	131
-616775.01	-903275.01	131
-616749.99	-903275	131
-616750.02	-903300.03	131
-616674.98	-903374.98	131
-616649.96	-903374.96	131
-616624.98	-903399.96	131
-616599.99	-903424.97	131
-616574.99	-903449.98	131
-616550	-903474.99	131
-616524.98	-903474.97	131
-616499.98	-903499.98	131
-616475.04	-903500.04	131
-616449.98	-903524.95	131
-616424.98	-903549.96	131
-616399.98	-903574.97	131
-616374.97	-903599.97	131
-616349.99	-903624.96	131
-616325.03	-903625.03	131
-616300.01	-903625	131
-616275	-903650.01	131
-616250	-903675.01	131
-616224.99	-903700.01	131
-616199.99	-903699.97	131
-616174.98	-903724.97	131
-616149.97	-903749.97	131
-616125.02	-903750.03	131
-616099.99	-903749.99	131
-616100.01	-903775.02	131
-616075.01	-903800.01	131
-616049.99	-903799.97	131
-616024.98	-903824.97	131
-616000.02	-903825.03	131
-615999.97	-903849.96	131
-615975.04	-903875.04	131
-615950	-903875.01	131
-615925	-903899.99	131
-615899.98	-903899.96	131
-615875.03	-903925.04	131
-615750.01	-904000.01	131
-615724.99	-904024.99	131
-615700.04	-904025.04	131
-615675.02	-904050.02	131
-615649.99	-904049.98	131
-615624.97	-904074.96	131
-615600.02	-904075.01	131
-615574.99	-904099.99	131
-615550.03	-904100.04	131
-615525.01	-904125.02	131
-615499.99	-904150	131
-615474.98	-904174.97	131
-615450.01	-904200.04	131
-615425	-904225	131
-615399.99	-904249.97	131
-615375.02	-904250.02	131
-615350	-904274.99	131
-615324.97	-904299.96	131
-615300.02	-904325.02	131
-615274.99	-904349.99	131
-615249.97	-904374.95	131
-615225.01	-904400.01	131
-615199.98	-904399.96	131
-615175.02	-904425.01	131
-615149.98	-904449.98	131
-615125.02	-904475.03	131
-615099.99	-904474.98	131
-615075.03	-904500.03	131
-615049.99	-904499.98	131
-615025.03	-904525.03	131
-614999.99	-904550	131
-614975.02	-904575.04	131
-614850	-904674.98	131
-614825.02	-904700.04	131
-614799.98	-904724.99	131
-614775.01	-904725.02	131
-614749.98	-904749.97	131
-614725	-904750	131
-614700.03	-904775.04	131
-614674.99	-904774.98	131
-614650.02	-904800.01	131
-614624.97	-904824.97	131
-614599.99	-904825	131
-614575.02	-904850.03	131
-614549.98	-904849.97	131
-614525.01	-904875	131
-614500.03	-904900.04	131
-614474.98	-904899.98	131
-614450	-904925.01	131
-614425.02	-904950.04	131
-614399.98	-904949.97	131
-614375	-904975	131
-614350.01	-904975.03	131
-614324.97	-904999.97	131
-614299.99	-904999.99	131
-614275.01	-905025.02	131
-614249.97	-905049.95	131
-614224.98	-905074.98	131
-614200	-905100	131
-614175.01	-905125.03	131
-614149.96	-905149.96	131
-614124.99	-905149.97	131
-614100	-905175	131
-614075.01	-905175.02	131
-614050.02	-905200.04	131
-613975	-905250	131
-613950.01	-905275.02	131
-613925.02	-905275.04	131
-613899.96	-905299.96	131
-613874.99	-905324.97	131
-613850	-905324.98	131
-613825	-905350	131
-613800.01	-905350.02	131
-613775.01	-905375.03	131
-613750.03	-905400.03	131
-613724.98	-905399.95	131
-613699.98	-905424.96	131
-613674.98	-905449.97	131
-613649.99	-905449.99	131
-613624.99	-905474.99	131
-613600.01	-905499.99	131
-613575	-905525	131
-613550.01	-905525.01	131
-613525.01	-905550.02	131
-613500	-905575.02	131
-613475.01	-905600.02	131
-613450.02	-905600.02	131
-613425.02	-905625.02	131
-613400.01	-905650.03	131
-613375.02	-905675.02	131
-613350.01	-905700.02	131
-613325.02	-905700.02	131
-613325.01	-905725.01	131
-613300.01	-905725.02	131
-613300	-905750.01	131
-613275.01	-905750.01	131
-613250	-905775.01	131
-613225	-905800	131
-613199.99	-905824.99	131
-613149.98	-905899.95	131
-613125.02	-905925.04	131
-613100.02	-905950.02	131
-613075.01	-905975	131
-613075	-905999.99	131
-613049.98	-906024.98	131
-613049.98	-906049.96	131
-613025.02	-906075.04	131
-613000.01	-906100.03	131
-613000.01	-906125	131
-612975	-906149.98	131
-612949.99	-906149.98	131
-612949.97	-906174.97	131
-612950.03	-906200.04	131
-612925.02	-906225.02	131
-612900.01	-906225.02	131
-612874.99	-906250	131
-612874.99	-906274.98	131
-612849.97	-906299.95	131
-612825.02	-906325.02	131
-612800	-906350	131
-612774.98	-906374.97	131
-612750.02	-906400.04	131
-612725	-906425.01	131
-612699.99	-906449.97	131
-612699.96	-906474.96	131
-612675.02	-906500.01	131
-612649.99	-906524.99	131
-612624.97	-906549.96	131
-612625.01	-906575.03	131
-612625	-906600	131
-612624.98	-906624.98	131
-612624.96	-906649.96	131
-612625.03	-906675.02	131
-612624.99	-906724.98	131
-612624.97	-906749.96	131
-612625.01	-906775.03	131
-612624.99	-906800.01	131
-612624.99	-906824.98	131
-612649.98	-906849.96	131
-612650.03	-906875.04	131
-612674.96	-906874.96	131
-612675.02	-906900.02	131
-612675	-906925	131
-612699.99	-906949.99	131
-612699.97	-906974.97	131
-612724.97	-906999.96	131
-612750.03	-907025.04	131
-612775.02	-907050.03	131
-612775	-907075.01	131
-612800.02	-907075.02	131
-612825	-907100.01	131
-612850	-907125	131
-612849.99	-907149.97	131
-612874.97	-907174.97	131
-612899.97	-907199.96	131
-612925.03	-907225.03	131
-612950.01	-907250.03	131
-612950	-907275	131
-612975.01	-907275.02	131
-612975	-907299.99	131
-613000.01	-907300	131
-613024.99	-907325	131
-613024.98	-907349.97	131
-613049.99	-907349.98	131
-613074.98	-907374.98	131
-613099.99	-907374.99	131
-613125	-907375	131
-613150.01	-907375.01	131
-613175.01	-907375.03	131
-613200.02	-907375.03	131
-613225.03	-907375.04	131
-613249.97	-907374.96	131
-613099.99	-907374.99	131
-613125	-907375	131
-613150.01	-907375.01	131
-613175.01	-907375.03	131
-613200.02	-907375.03	131
-613225.03	-907375.04	131
-613249.97	-907374.96	131
-613274.98	-907374.97	131
-613299.99	-907374.98	131
-613324.99	-907374.99	131
-613350	-907374.99	131
-613375	-907375.01	131
-613400.01	-907375.01	131
-613425.01	-907375.02	131
-613450.03	-907375.03	131
-613475.02	-907375.04	131
-613500.02	-907375.05	131
-613524.97	-907374.96	131
-613549.97	-907374.97	131
-613574.97	-907374.97	131
-613599.99	-907374.97	131
-613624.99	-907374.98	131
-613649.99	-907374.99	131
-613674.99	-907374.99	131
-613700.01	-907350.01	131
-613725.01	-907350.02	131
-613750.01	-907350.02	131
-613775.01	-907350.03	131
-613800.01	-907350.03	131
-613825.01	-907350.03	131
-613850.01	-907350.03	131
-613875.01	-907350.04	131
-613900.02	-907350.04	131
-613925.02	-907350.04	131
-613950.02	-907350.04	131
-613975.02	-907350.03	131
-614000.03	-907350.03	131
-614025.03	-907350.03	131
-614050.02	-907350.04	131
-614075.02	-907350.03	131
-614150.02	-907350.03	131
-614175.02	-907350.03	131
-614200.01	-907350.03	131
-614225.01	-907350.02	131
-614250.02	-907350.01	131
-614275.01	-907350.02	131
-614300.01	-907350.01	131
-614300.02	-907325.02	131
-614325.01	-907325.02	131
-614350	-907325.02	131
-614375.01	-907325.01	131
-614400	-907325.01	131
-614425	-907324.99	131
-614449.99	-907324.99	131
-614474.98	-907324.99	131
-614500	-907299.98	131
-614524.99	-907299.98	131
-614549.98	-907299.97	131
-614574.97	-907299.97	131
-614599.98	-907299.95	131
-614625.03	-907325.03	131
-614625.03	-907300.04	131
-614650.02	-907325.02	131
-614650.02	-907300.03	131
-614675.01	-907325.01	131
-614700.01	-907325	131
-614725	-907324.99	131
-614749.99	-907324.99	131
-614749.99	-907299.99	131
-614774.99	-907299.98	131
-614799.98	-907299.97	131
-614824.97	-907299.96	131
-614850.03	-907300.04	131
-614875.02	-907300.03	131
-614900.02	-907300.01	131
-614925	-907300.01	131
-614949.99	-907299.99	131
-614974.99	-907299.98	131
-614999.98	-907299.96	131
-615024.96	-907299.96	131
-615050.02	-907300.03	131
-615075.01	-907300.01	131
-615099.99	-907300.01	131
-615124.99	-907299.99	131
-615124.99	-907274.99	131
-615225.02	-907275.01	131
-615250	-907275	131
-615274.98	-907274.99	131
-615299.98	-907274.97	131
-615325.02	-907275.04	131
-615350.02	-907275.02	131
-615375	-907275	131
-615399.98	-907274.99	131
-615424.98	-907274.96	131
-615450.03	-907275.04	131
-615475.01	-907275.02	131
-615499.99	-907275	131
-615524.98	-907274.98	131
-615549.98	-907274.95	131
-615575.02	-907275.03	131
-615600.01	-907275.01	131
-615624.99	-907274.98	131
-615649.98	-907274.96	131
-615675.02	-907275.03	131
-615700.01	-907275.01	131
-615724.99	-907274.98	131
-615749.98	-907274.96	131
-615775.03	-907275.03	131
-615800.01	-907275	131
-615824.98	-907274.99	131
-615849.97	-907249.95	131
-615875.02	-907250.02	131
-615899.99	-907250	131
-615924.98	-907249.97	131
-615950.03	-907250.04	131
-615975	-907225.01	131
-615999.99	-907224.98	131
-616025.03	-907225.04	131
-616050.01	-907225.02	131
-616074.99	-907224.99	131
-616099.97	-907224.96	131
-616125.02	-907225.02	131
-616149.99	-907199.99	131
-616174.97	-907199.96	131
-616200.01	-907200.02	131
-616225	-907199.99	131
-616249.97	-907199.96	131
-616275.01	-907200.02	131
-616300	-907199.99	131
-616324.97	-907199.96	131
-616350	-907175.01	131
-616374.99	-907174.97	131
-616400.03	-907175.03	131
-616424.99	-907150	131
-616449.97	-907149.96	131
-616475.02	-907150.01	131
-616499.99	-907149.98	131
-616525.02	-907125.03	131
-616550	-907125	131
-616574.97	-907124.96	131
-616600.01	-907125.02	131
-616624.98	-907099.97	131
-616650.01	-907100.03	131
-616674.99	-907099.99	131
-616700.03	-907100.05	131
-616724.99	-907075	131
-616749.97	-907074.96	131
-616774.99	-907050	131
-616799.97	-907049.96	131
-616825.01	-907050.01	131
-616849.98	-907049.97	131
-616875.01	-907025.01	131
-616899.98	-907024.97	131
-616925.02	-907025.01	131
-616949.98	-906999.96	131
-616975	-907000.02	131
-616999.98	-906999.97	131
-617025.02	-907000.02	131
-617049.98	-906999.98	131
-617075	-906975.02	131
-617100.02	-906950.05	131
-617125	-906950	131
-617150.02	-906925.03	131
-617200.02	-906925.03	131
-617224.98	-906899.97	131
-617250.02	-906900.01	131
-617274.98	-906899.97	131
-617300	-906900.02	131
-617325.02	-906875.04	131
-617350	-906874.99	131
-617375.02	-906875.04	131
-617399.98	-906849.97	131
-617424.99	-906824.99	131
-617450.02	-906825.04	131
-617474.99	-906824.98	131
-617500.02	-906825.02	131
-617524.97	-906799.95	131
-617550	-906799.99	131
-617575.02	-906800.04	131
-617599.99	-906799.98	131
-617625	-906775	131
-617650.02	-906775.04	131
-617674.99	-906774.99	131
-617700	-906750.01	131
-617725.03	-906750.04	131
-617749.99	-906749.99	131
-617775	-906725	131
-617800.03	-906725.04	131
-617824.99	-906724.98	131
-617850	-906699.99	131
-617875.03	-906700.03	131
-617900.03	-906675.04	131
-617924.98	-906674.99	131
-617950.01	-906675.02	131
-617974.97	-906674.96	131
-617999.98	-906649.97	131
-618025.01	-906650	131
-618050.01	-906625	131
-618075.03	-906625.04	131
-618174.97	-906599.96	131
-618199.98	-906574.96	131
-618224.99	-906574.99	131
-618249.99	-906549.99	131
-618275.02	-906550.02	131
-618299.97	-906549.96	131
-618324.97	-906524.96	131
-618349.98	-906524.99	131
-618375.01	-906525.01	131
-618400.03	-906525.04	131
-618425.03	-906500.03	131
-618450.02	-906475.03	131
-618475.02	-906450.02	131
-618500.02	-906425.02	131
-618525.03	-906425.04	131
-618549.98	-906424.98	131
-618574.99	-906425	131
-618599.99	-906399.99	131
-618625	-906400.02	131
-618650	-906375.01	131
-618675.01	-906375.03	131
-618699.96	-906374.96	131
-618724.98	-906374.98	131
-618749.99	-906375.01	131
-618774.98	-906349.99	131
-618800	-906350.01	131
-618824.99	-906324.99	131
-618850.01	-906325.01	131
-618875.02	-906325.03	131
-618900.01	-906300.01	131
-618925.03	-906300.03	131
-618949.98	-906299.95	131
-618975.02	-906275.04	131
-619150.01	-906250.02	131
-619174.99	-906224.99	131
-619200.01	-906225	131
-619224.99	-906199.98	131
-619249.99	-906199.99	131
-619275.01	-906200	131
-619299.98	-906174.98	131
-619325	-906174.99	131
-619350	-906175.01	131
-619374.98	-906149.97	131
-619399.98	-906149.99	131
-619425	-906149.99	131
-619449.98	-906124.96	131
-619474.98	-906124.97	131
-619499.99	-906124.98	131
-619524.99	-906125	131
-619549.97	-906099.96	131
-619574.97	-906099.97	131
-619600.01	-906075.02	131
-619625.02	-906075.03	131
-619650.02	-906075.04	131
-619675	-906050	131
-619700	-906050.01	131
-619725	-906050.01	131
-619749.98	-906024.97	131
-619774.98	-906024.98	131
-619799.99	-906024.98	131
-619825.03	-906000.03	131
-619850.03	-906000.03	131
-619875.03	-906000.03	131
-619900.02	-906000.05	131
-619925	-905975	131
-619950	-905975	131
-619975	-905975	131
-620099.99	-905925	131
-620125	-905925	131
-620150.03	-905900.04	131
-620175.02	-905900.04	131
-620200.03	-905900.04	131
-620225	-905874.98	131
-620249.99	-905874.98	131
-620274.99	-905874.98	131
-620300.01	-905850.02	131
-620325.01	-905850.01	131
-620349.97	-905824.96	131
-620374.97	-905824.95	131
-620399.98	-905799.99	131
-620424.99	-905799.98	131
-620450	-905775.02	131
-620475.01	-905775.01	131
-620500.02	-905750.04	131
-620525.03	-905750.03	131
-620550.02	-905750.03	131
-620575.01	-905750.02	131
-620599.97	-905724.95	131
-620625.03	-905725.04	131
-620649.99	-905699.97	131
-620674.98	-905699.96	131
-620699.99	-905674.99	131
-620724.99	-905674.97	131
-620750	-905650.01	131
-620774.99	-905650	131
-620799.98	-905649.98	131
-620824.97	-905649.97	131
-620849.99	-905624.99	131
-620874.99	-905624.98	131
-620899.98	-905624.96	131
-621050.02	-905575.04	131
-621074.97	-905549.96	131
-621100.03	-905550.03	131
-621124.97	-905524.96	131
-621150.02	-905525.03	131
-621174.98	-905499.95	131
-621200.02	-905500.03	131
-621225.01	-905500.01	131
-621249.99	-905499.99	131
-621275	-905475	131
-621299.99	-905474.98	131
-621324.99	-905449.99	131
-621349.98	-905449.96	131
-621375.03	-905450.04	131
-621400.02	-905450.01	131
-621425.02	-905425.03	131
-621449.99	-905425.01	131
-621475.01	-905400.01	131
-621499.98	-905399.99	131
-621524.98	-905399.96	131
-621550.02	-905400.03	131
-621575.03	-905375.03	131
-621600.01	-905375.01	131
-621625	-905350.01	131
-621650	-905349.98	131
-621674.98	-905349.95	131
-621699.97	-905324.96	131
-621725.01	-905325.03	131
-621750.02	-905300.02	131
-621775	-905299.99	131
-621799.98	-905299.96	131
-621824.96	-905274.97	131
-621850.02	-905275.02	131
-621875	-905274.99	131
-621950.02	-905250.02	131
-621975	-905249.99	131
-621999.98	-905249.95	131
-622025.03	-905225.04	131
-622050.01	-905225.01	131
-622074.99	-905200	131
-622099.97	-905199.97	131
-622125.02	-905200.02	131
-622150	-905199.99	131
-622174.98	-905174.98	131
-622200.03	-905175.03	131
-622224.99	-905175.01	131
-622249.99	-905149.98	131
-622275.02	-905150.05	131
-622300.01	-905150.01	131
-622324.99	-905149.96	131
-622350.03	-905125.04	131
-622375	-905125.01	131
-622399.99	-905099.98	131
-622425.03	-905100.04	131
-622450.01	-905100	131
-622474.99	-905074.98	131
-622500.02	-905075.04	131
-622525	-905074.99	131
-622549.97	-905074.96	131
-622575.01	-905050.03	131
-622599.99	-905049.98	131
-622624.97	-905024.96	131
-622650	-905025.01	131
-622674.99	-904999.98	131
-622700.02	-905000.03	131
-622724.99	-904999.99	131
-622749.97	-904974.96	131
-622775	-904975.01	131
-622799.98	-904974.96	131
-622825.01	-904975.01	131
-622849.98	-904974.96	131
-622875.02	-904950.03	131
-622899.99	-904949.98	131
-622925.02	-904950.03	131
-622949.99	-904924.99	131
-622975.03	-904925.04	131
-622999.99	-904924.99	131
-623024.97	-904899.96	131
-623050	-904900	131
-623074.97	-904874.97	131
-623100	-904875.01	131
-623124.97	-904849.97	131
-623150.02	-904825.01	131
-623174.97	-904824.97	131
-623200.02	-904800.01	131
-623224.97	-904799.97	131
-623250.02	-904775.01	131
-623274.98	-904749.97	131
-623300.01	-904750.01	131
-623324.98	-904724.96	131
-623349.99	-904725.01	131
-623374.97	-904699.96	131
-623400	-904675	131
-623425.02	-904650.05	131
-623450	-904624.99	131
-623475.02	-904600.04	131
-623499.99	-904599.97	131
-623525.01	-904575.02	131
-623549.97	-904549.97	131
-623575	-904525	131
-623600.02	-904500.04	131
-623624.99	-904474.98	131
-623650.01	-904450.02	131
-623674.98	-904449.95	131
-623699.99	-904424.99	131
-623725.01	-904425.03	131
-623749.97	-904399.96	131
-623775	-904374.99	131
-623800.02	-904350.02	131
-623824.98	-904324.96	131
-623849.99	-904299.99	131
-623875.01	-904300.02	131
-623900.03	-904275.04	131
-623900.02	-904250.05	131
-623924.98	-904224.98	131
-623950	-904225.01	131
-623975.02	-904200.03	131
-623999.98	-904174.95	131
-624024.99	-904174.98	131
-624050	-904150.01	131
-624075.02	-904125.03	131
-624099.97	-904099.95	131
-624124.97	-904074.98	131
-624149.99	-904049.99	131
-624175	-904050.01	131
-624200.02	-904025.03	131
-624224.97	-904024.96	131
-624249.99	-903999.97	131
-624274.98	-903974.99	131
-624300	-903975.01	131
-624325.01	-903950.02	131
-624350.03	-903950.04	131
-624374.97	-903924.95	131
-624399.98	-903899.96	131
-624424.98	-903874.98	131
-624449.99	-903874.99	131
-624475	-903850	131
-624525.02	-903850.04	131
-624550.02	-903825.04	131
-624575.03	-903800.04	131
-624599.98	-903799.96	131
-624624.97	-903774.98	131
-624649.99	-903774.98	131
-624674.99	-903749.98	131
-624699.99	-903750	131
-624724.99	-903725	131
-624750	-903700	131
-624775	-903675	131
-624800	-903649.99	131
-624824.99	-903624.99	131
-624849.99	-903625	131
-624874.99	-903600	131
-624899.99	-903574.99	131
-624925.01	-903574.99	131
-624950	-903549.99	131
-624975	-903550	131
-624999.99	-903524.99	131
-624999.99	-903499.97	131
-625024.99	-903499.98	131
-625049.98	-903474.97	131
-625074.98	-903474.98	131
-625099.97	-903449.96	131
-625125.03	-903425.04	131
-625149.96	-903424.96	131
-625175.02	-903400.04	131
-625200	-903375.02	131
-625225.01	-903349.99	131
-625249.99	-903324.98	131
-625274.98	-903299.96	131
-625299.98	-903299.96	131
-625325.03	-903275.04	131
-625350.01	-903250.02	131
-625374.99	-903225	131
-625399.97	-903199.98	131
-625425.03	-903175.04	131
-625450.03	-903175.04	131
-625475.01	-903150.01	131
-625499.99	-903124.99	131
-625524.99	-903124.99	131
-625524.97	-903099.97	131
-625549.97	-903099.96	131
-625574.97	-903099.96	131
-625600.01	-903075.02	131
-625625.01	-903075.01	131
-625649.98	-903049.99	131
-625674.98	-903049.98	131
-625699.98	-903049.97	131
-625725.02	-903025.03	131
-625750.02	-903025.02	131
-625775	-902999.99	131
-625799.98	-902999.99	131
-625824.98	-902999.97	131
-625850.02	-902975.03	131
-625875.02	-902975.02	131
-625899.99	-902949.98	131
-625924.97	-902949.98	131
-625950.02	-902925.02	131
-625975.01	-902925.02	131
-626000.01	-902925	131
-626024.98	-902899.96	131
-626050.03	-902900.04	131
-626074.99	-902875.01	131
-626100	-902874.99	131
-626124.98	-902874.98	131
-626150.01	-902850.03	131
-626175	-902850.01	131
-626199.98	-902824.96	131
-626274.98	-902799.98	131
-626299.97	-902799.97	131
-626325.01	-902775	131
-626349.99	-902774.98	131
-626374.98	-902774.97	131
-626400.01	-902750.01	131
-626424.99	-902749.99	131
-626450.02	-902725.03	131
-626475.01	-902725.01	131
-626499.96	-902699.96	131
-626525.02	-902700.03	131
-626550	-902700.01	131
-626574.96	-902674.96	131
-626600.01	-902675.03	131
-626624.97	-902649.97	131
-626650.02	-902650.04	131
-626675.01	-902650.01	131
-626699.97	-902624.96	131
-626725.02	-902625.02	131
-626749.97	-902599.96	131
-626775.02	-902600.03	131
-626799.98	-902574.97	131
-626825.03	-902575.03	131
-626850	-902575.01	131
-626874.99	-902574.98	131
-626875.02	-902550.04	131
-626899.99	-902524.97	131
-626900.01	-902500.03	131
-626924.96	-902474.96	131
-626950.01	-902475.02	131
-626974.96	-902449.96	131
-626975	-902425	131
-627000.01	-902400.03	131
-626999.99	-902374.99	131
-627024.98	-902374.95	131
-627049.98	-902349.98	131
-627074.99	-902325	131
-626999.99	-902374.99	131
-627024.98	-902374.95	131
-627049.98	-902349.98	131
-627074.99	-902325	131
-627074.96	-902299.96	131
-627075	-902275.01	131
-627099.99	-902274.97	131
-627124.99	-902249.99	131
-627125.02	-902225.04	131
-627124.99	-902200	131
-627150.01	-902175.01	131
-627175.01	-902150.03	131
-627174.99	-902124.98	131
-627199.99	-902100	131
-627224.98	-902099.96	131
-627249.98	-902074.98	131
-627250.01	-902050.03	131
-627275.02	-902025.03	131
-627275	-901999.98	131
-627299.99	-901975	131
-627300.03	-901950.04	131
-627324.96	-901924.96	131
-627325	-901900	131
-627324.96	-901874.96	131
-627325	-901850	131
-627350.01	-901825.01	131
-627349.98	-901799.95	131
-627350	-901775	131
-627375	-901750.01	131
-627374.97	-901724.96	131
-627375.01	-901700	131
-627400.01	-901675	131
-627399.98	-901649.95	131
-627424.97	-901624.95	131
-627425.01	-901599.99	131
-627525.03	-901475.03	131
-627550.02	-901450.03	131
-627575.03	-901425.02	131
-627600.02	-901400.02	131
-627599.98	-901374.97	131
-627624.98	-901349.96	131
-627625	-901325	131
-627625.03	-901300.04	131
-627650.03	-901275.03	131
-627675.01	-901250.02	131
-627700.01	-901225.01	131
-627724.99	-901200	131
-627725.03	-901175.03	131
-627724.98	-901149.98	131
-627749.97	-901124.97	131
-627774.97	-901099.95	131
-627774.98	-901074.99	131
-627799.98	-901049.98	131
-627800.01	-901025.01	131
-627799.97	-900999.95	131
-627825	-900999.99	131
-627825.03	-900975.02	131
-627824.97	-900949.97	131
-627850.03	-900925.05	131
-627849.99	-900899.99	131
-627850.02	-900875.02	131
-627849.98	-900849.96	131
-627875.03	-900825.03	131
-627874.99	-900799.97	131
-627875.01	-900775.01	131
-627875.03	-900750.04	131
-627900.01	-900725.02	131
-627999.99	-900574.98	131
-628024.97	-900549.95	131
-628050.01	-900525.02	131
-628049.97	-900499.95	131
-628049.99	-900474.99	131
-628074.97	-900449.95	131
-628074.99	-900424.98	131
-628100.04	-900400.04	131
-628099.98	-900374.98	131
-628125.03	-900350.04	131
-628150	-900325.01	131
-628150.02	-900300.03	131
-628149.98	-900274.96	131
-628175	-900274.99	131
-628175.01	-900250.03	131
-628174.97	-900224.96	131
-628199.99	-900224.99	131
-628200.01	-900200.01	131
-628225.03	-900200.04	131
-628224.99	-900174.97	131
-628250.03	-900150.03	131
-628249.97	-900124.97	131
-628275	-900100.02	131
-628275.02	-900075.04	131
-628274.98	-900049.98	131
-628300.01	-900025.03	131
-628299.97	-899999.96	131
-628325	-899975.01	131
-628325.01	-899950.03	131
-628350	-899924.98	131
-628350.01	-899900.01	131
-628374.98	-899874.96	131
-628399.99	-899874.98	131
-628425.02	-899850.03	131
-628424.97	-899824.96	131
-628424.99	-899799.98	131
-628450.02	-899775.02	131
-628474.98	-899749.98	131
-628500.03	-899700.04	131
-628499.97	-899674.97	131
-628525.01	-899650	131
-628525.01	-899625.03	131
-628549.98	-899599.97	131
-628549.99	-899575	131
-628550.01	-899550.01	131
-628574.98	-899524.95	131
-628599.99	-899499.99	131
-628600.01	-899475.01	131
-628600.03	-899450.03	131
-628599.96	-899424.96	131
-628624.99	-899399.99	131
-628625.01	-899375.01	131
-628625.02	-899350.02	131
-628649.98	-899324.96	131
-628649.99	-899299.98	131
-628650.01	-899274.99	131
-628650.02	-899250.01	131
-628650.03	-899225.03	131
-628674.99	-899199.97	131
-628675	-899174.98	131
-628675.01	-899150	131
-628675.02	-899125.02	131
-628675.02	-899100.03	131
-628674.97	-899074.96	131
-628699.98	-899049.99	131
-628700.01	-899025	131
-628700.01	-899000.01	131
-628700.02	-898975.03	131
-628699.97	-898949.95	131
-628724.98	-898924.98	131
-628724.99	-898899.99	131
-628725.01	-898875	131
-628750.01	-898850.03	131
-628750.03	-898825.04	131
-628749.97	-898799.97	131
-628774.99	-898774.98	131
-628799.99	-898774.99	131
-628774.99	-898774.98	131
-628799.99	-898774.99	131
-628800.01	-898750	131
-628825.01	-898725.02	131
-628850.03	-898700.04	131
-628849.98	-898674.95	131
-628874.98	-898649.98	131
-628899.99	-898624.99	131
-628925.01	-898600	131
-628950.01	-898575.02	131
-628975.02	-898550.03	131
-629000.03	-898525.04	131
-629024.98	-898499.96	131
-629024.98	-898474.97	131
-629049.98	-898474.97	131
-629074.99	-898449.98	131
-629075	-898424.99	131
-629099.98	-898424.99	131
-629124.99	-898400	131
-629150	-898375.01	131
-629150.01	-898350.01	131
-629175.02	-898325.01	131
-629200.02	-898300.01	131
-629225.02	-898275.02	131
-629225.02	-898250.03	131
-629250.02	-898225.03	131
-629275.02	-898200.03	131
-629300.02	-898175.03	131
-629325.01	-898150.03	131
-629350.03	-898125.02	131
-629350.02	-898100.03	131
-629375.01	-898075.03	131
-629400.02	-898050.02	131
-629400.01	-898025.03	131
-629425.01	-897975.03	131
-629450.02	-897950.01	131
-629450.01	-897925.02	131
-629450.01	-897900.02	131
-629475.01	-897875.01	131
-629475.01	-897850.01	131
-629500	-897850	131
-629500	-897825	131
-629525	-897799.99	131
-629549.98	-897774.98	131
-629549.98	-897749.98	131
-629574.98	-897724.96	131
-629599.96	-897699.96	131
-629600.04	-897675.04	131
-629625.01	-897650.03	131
-629650.01	-897625.01	131
-629675	-897599.99	131
-629699.99	-897574.97	131
-629724.97	-897549.96	131
-629724.97	-897524.95	131
-629750.03	-897500.02	131
-629775	-897475.01	131
-629799.98	-897449.99	131
-629824.97	-897424.96	131
-629850.02	-897400.03	131
-629875	-897375	131
-629899.98	-897349.98	131
-629899.99	-897324.97	131
-629925.03	-897300.03	131
-629950.01	-897275	131
-629949.99	-897250.01	131
-629974.99	-897224.97	131
-629974.97	-897199.97	131
-630000.01	-897175.03	131
-630000.01	-897175.03	131
-630025	-897149.99	131
-630049.98	-897124.96	131
-630050.03	-897100.04	131
-630075.01	-897075.01	131
-630099.98	-897049.98	131
-630099.97	-897024.97	131
-630125.02	-897000.02	131
-630149.99	-896974.99	131
-630175.02	-896950.04	131
-630175.02	-896925.02	131
-630199.99	-896899.99	131
-630225.03	-896875.03	131
-630225.02	-896850.03	131
-630225.01	-896825.02	131
-630225.01	-896800	131
-630224.99	-896774.99	131
-630250.03	-896750.03	131
-630250.02	-896725.03	131
-630250.02	-896700.01	131
-630250	-896675	131
-630250	-896649.98	131
-630275.02	-896625.04	131
-630275.01	-896600.02	131
-630275.01	-896575	131
-630274.99	-896549.99	131
-630274.98	-896524.98	131
-630300.02	-896500.02	131
-630324.98	-896474.97	131
-630324.97	-896449.95	131
-630325.03	-896425.03	131
-630325.01	-896400.02	131
-630349.99	-896399.98	131
-630349.98	-896374.96	131
-630350.02	-896350.05	131
-630375	-896324.99	131
-630374.99	-896299.97	131
-630374.98	-896274.95	131
-630400	-896249.99	131
-630399.98	-896224.98	131
-630399.97	-896199.96	131
-630424.99	-896175	131
-630424.99	-896149.98	131
-630424.97	-896124.96	131
-630449.99	-896100	131
-630449.99	-896074.97	131
-630449.97	-896049.96	131
-630450.02	-896025.03	131
-630474.98	-895999.97	131
-630475.03	-895975.05	131
-630475.02	-895950.02	131
-630475	-895925	131
-630474.99	-895899.98	131
-630474.97	-895874.96	131
-630475.03	-895850.03	131
-630475.01	-895825.02	131
-630475	-895799.99	131
-630474.97	-895774.98	131
-630475.03	-895750.04	131
-630475.02	-895725.02	131
-630474.99	-895700	131
-630474.98	-895674.98	131
-630474.97	-895649.96	131
-630475.02	-895625.02	131
-630475	-895600.01	131
-630474.98	-895574.99	131
-630474.97	-895549.96	131
-630475.02	-895525.03	131
-630475.01	-895500.01	131
-630474.99	-895474.98	131
-630474.97	-895449.96	131
-630475.02	-895425.03	131
-630475.01	-895400.01	131
-630449.96	-895399.97	131
-630450.03	-895375.02	131
-630450.01	-895350	131
-630424.97	-895349.96	131
-630399.99	-895350.01	131
-630399.99	-895324.98	131
-630399.98	-895299.95	131
-630399.98	-895299.95	131
-630400.02	-895275.02	131
-630400	-895250	131
-630399.98	-895224.98	131
-630399.96	-895199.96	131
-630400.02	-895175.02	131
-630374.96	-895149.96	131
-630375.02	-895125.02	131
-630375	-895100	131
-630374.98	-895074.98	131
-630375.03	-895050.04	131
-630375.01	-895025.02	131
-630375	-894999.99	131
-630374.98	-894974.97	131
-630375.03	-894950.03	131
-630375	-894925.01	131
-630374.99	-894899.98	131
-630350	-894875.01	131
-630349.98	-894849.98	131
-630349.97	-894824.95	131
-630350.01	-894800.02	131
-630350	-894774.99	131
-630349.98	-894749.96	131
-630350.02	-894725.04	131
-630350	-894700.01	131
-630349.99	-894674.98	131
-630349.97	-894649.95	131
-630350.02	-894625.02	131
-630350	-894599.99	131
-630349.98	-894574.96	131
-630350.01	-894550.03	131
-630349.99	-894525.01	131
-630349.97	-894499.98	131
-630350.02	-894475.04	131
-630350.01	-894450	131
-630375.02	-894425.02	131
-630375	-894399.99	131
-630374.98	-894374.96	131
-630375.02	-894350.03	131
-630374.99	-894325	131
-630400.01	-894300	131
-630399.99	-894274.97	131
-630400.03	-894250.04	131
-630424.96	-894224.96	131
-630425.01	-894200.01	131
-630424.99	-894174.99	131
-630424.97	-894149.95	131
-630425.01	-894125.02	131
-630450.02	-894100.02	131
-630449.99	-894074.99	131
-630449.97	-894049.95	131
-630450.01	-894025.02	131
-630449.99	-893999.98	131
-630449.98	-893974.95	131
-630450.01	-893950.02	131
-630449.99	-893924.98	131
-630450.04	-893900.04	131
-630450	-893875.01	131
-630449.98	-893849.98	131
-630450.03	-893825.03	131
-630450.01	-893800	131
-630449.99	-893774.97	131
-630475.01	-893775	131
-630474.98	-893749.96	131
-630475.03	-893725.02	131
-630475	-893699.99	131
-630474.96	-893674.96	131
-630475	-893650.02	131
-630474.99	-893624.98	131
-630475.03	-893600.03	131
-630475.01	-893575	131
-630474.98	-893549.97	131
-630475.02	-893525.03	131
-630474.99	-893499.99	131
-630474.96	-893474.96	131
-630475.02	-893450.01	131
-630474.99	-893424.98	131
-630499.97	-893399.98	131
-630500.02	-893375.02	131
-630499.99	-893349.99	131
-630524.99	-893324.98	131
-630525.02	-893300.04	131
-630525.01	-893274.99	131
-630524.97	-893249.96	131
-630525.02	-893225.01	131
-630550	-893200.01	131
-630549.98	-893174.97	131
-630550.02	-893150.02	131
-630549.98	-893124.99	131
-630574.98	-893099.97	131
-630575.02	-893075.02	131
-630574.99	-893049.98	131
-630599.98	-893024.97	131
-630600.01	-893000.03	131
-630599.98	-892974.99	131
-630624.97	-892949.97	131
-630625.01	-892925.02	131
-630624.98	-892899.98	131
-630625.02	-892875.03	131
-630624.99	-892849.99	131
-630625.03	-892825.04	131
-630650.02	-892800.01	131
-630649.99	-892774.97	131
-630650.03	-892750.03	131
-630649.99	-892724.99	131
-630650.03	-892700.04	131
-630675.02	-892675.01	131
-630674.99	-892649.97	131
-630675.02	-892625.02	131
-630700.01	-892599.99	131
-630699.97	-892574.96	131
-630700	-892550.01	131
-630699.98	-892524.96	131
-630725.01	-892500.03	131
-630724.99	-892474.98	131
-630725.02	-892450.04	131
-630724.99	-892424.99	131
-630749.98	-892399.96	131
-630750	-892375.01	131
-630749.98	-892349.96	131
-630750	-892325.02	131
-630774.99	-892299.97	131
-630775.01	-892275.03	131
-630774.99	-892249.98	131
-630800.03	-892225.04	131
-630825	-892200.01	131
-630824.97	-892174.96	131
-630825.01	-892150.01	131
-630849.98	-892124.97	131
-630850.01	-892100.02	131
-630849.98	-892074.97	131
-630875.01	-892050.03	131
-630874.98	-892024.98	131
-630900.02	-892000.03	131
-630899.99	-891974.98	131
-630925.02	-891950.04	131
-630924.98	-891924.99	131
-630925.03	-891900.02	131
-630924.99	-891874.98	131
-630925.01	-891850.02	131
-630949.99	-891824.98	131
-630950.02	-891800.02	131
-630949.98	-891774.98	131
-630950.02	-891750.01	131
-630949.97	-891724.96	131
-630950	-891700.01	131
-630949.97	-891674.95	131
-630975.01	-891650	131
-630975.03	-891625.04	131
-630975	-891599.99	131
-630975.02	-891575.03	131
-630974.99	-891549.98	131
-630975.02	-891525.01	131
-630999.99	-891499.97	131
-631000	-891475.01	131
-630999.97	-891449.96	131
-631000	-891424.99	131
-631000.02	-891400.04	131
-631024.99	-891374.98	131
-631025.02	-891350.02	131
-631024.97	-891324.98	131
-631025	-891300.01	131
-631024.96	-891274.96	131
-631024.99	-891250	131
-631050.03	-891225.03	131
-631049.99	-891199.97	131
-631050.01	-891175.01	131
-631049.98	-891149.96	131
-631050	-891125	131
-631050.02	-891100.03	131
-631049.98	-891074.98	131
-631050.01	-891050.02	131
-631049.98	-891024.95	131
-631050	-890999.99	131
-631050.02	-890975.03	131
-631049.98	-890949.98	131
-631050.01	-890925.01	131
-631049.97	-890899.95	131
-631049.99	-890874.99	131
-631050.02	-890850.02	131
-631049.97	-890824.97	131
-631050.01	-890800	131
-631050.02	-890775.04	131
-631049.99	-890749.98	131
-631050.01	-890725.02	131
-631049.97	-890699.95	131
-631049.99	-890674.99	131
-631050.02	-890650.02	131
-631049.98	-890624.96	131
-631049.99	-890600	131
-631050.02	-890575.03	131
-631049.98	-890549.97	131
-631050.01	-890525	131
-631050.02	-890500.04	131
-631049.98	-890474.98	131
-631025.01	-890450.02	131
-631024.97	-890424.96	131
-631024.99	-890399.99	131
-630999.98	-890274.98	131
-631000	-890250.01	131
-630974.97	-890224.96	131
-630974.99	-890199.99	131
-630975.02	-890175.01	131
-630974.98	-890149.96	131
-630950	-890125	131
-630950.02	-890100.03	131
-630949.97	-890074.97	131
-630950.01	-890050	131
-630950.02	-890025.03	131
-630949.98	-889999.97	131
-630924.98	-889999.98	131
-630925	-889975.02	131
-630925.03	-889950.04	131
-630924.98	-889924.98	131
-630925.01	-889900.01	131
-630925.03	-889875.04	131
-630924.99	-889849.97	131
-630925	-889825.01	131
-630899.96	-889799.96	131
-630899.99	-889774.99	131
-630900.02	-889750.01	131
-630874.98	-889724.96	131
-630875	-889699.99	131
-630875.01	-889675.03	131
-630874.97	-889649.96	131
-630875	-889624.99	131
-630875.01	-889600.02	131
-630849.98	-889574.97	131
-630850	-889549.99	131
-630850.01	-889525.03	131
-630849.97	-889499.97	131
-630849.99	-889474.99	131
-630825.03	-889450.03	131
-630824.98	-889424.96	131
-630825	-889399.99	131
-630825.02	-889375.02	131
-630824.98	-889349.95	131
-630824.98	-889424.96	131
-630825	-889399.99	131
-630825.02	-889375.02	131
-630824.98	-889349.95	131
-630800	-889325	131
-630800.02	-889300.03	131
-630799.97	-889274.97	131
-630799.99	-889249.99	131
-630775.02	-889225.03	131
-630774.98	-889199.97	131
-630774.99	-889175	131
-630775.01	-889150.03	131
-630774.97	-889124.96	131
-630749.98	-889124.97	131
-630749.99	-889100	131
-630750.02	-889075.02	131
-630749.97	-889049.96	131
-630724.98	-889049.98	131
-630699.99	-889050	131
-630675.02	-889025.03	131
-630649.99	-888999.98	131
-630625	-888999.99	131
-630600.02	-888975.04	131
-630574.97	-888974.96	131
-630550.01	-888950	131
-630525.02	-888950.01	131
-630500.03	-888950.02	131
-630475.03	-888950.03	131
-630449.96	-888949.97	131
-630424.97	-888949.98	131
-630399.99	-888949.99	131
-630375	-888950	131
-630349.99	-888974.97	131
-630324.99	-888974.99	131
-630300	-888975	131
-630275.01	-888975.01	131
-630250.02	-888975.01	131
-630225.02	-888975.03	131
-630200.01	-889000	131
-630175.01	-889000.02	131
-630150.02	-889000.02	131
-630125.01	-889000.04	131
-630075	-889025.02	131
-630050.02	-889025.02	131
-629350.01	-889125.01	131
