-312825.0020000000 -511425.0010000000
-312699.9970000000 -511424.9900000000
-312575.0060000000 -511550.0140000000
-312449.9960000000 -511674.9910000000
-312325.0150000000 -511800.0210000000
-312200.0050000000 -511925.0110000000
-312074.9770000000 -512049.9540000000
-311949.9920000000 -512049.9840000000
-311824.9760000000 -512174.9540000000
-311699.9890000000 -512299.9760000000
-311574.9740000000 -512424.9570000000
-311449.9960000000 -512549.9860000000
-311324.9810000000 -512674.9800000000
-311200.0130000000 -512800.0150000000
-311199.9860000000 -512924.9850000000
-311074.9760000000 -513049.9670000000
-310949.9950000000 -513175.0010000000
-310824.9950000000 -513299.9890000000
-310700.0230000000 -513425.0300000000
-310575.0220000000 -513550.0310000000
-310449.9940000000 -513674.9910000000
-310324.9790000000 -513674.9560000000
-310200.0190000000 -513800.0360000000
-310074.9720000000 -513799.9630000000
-309949.9770000000 -513924.9710000000
-309825.0190000000 -513925.0400000000
-309699.9960000000 -513924.9990000000
-309574.9990000000 -514050.0070000000
-309450.0090000000 -514050.0150000000
-309325.0020000000 -514050.0110000000
-309200.0110000000 -514175.0140000000
-309074.9800000000 -514174.9660000000
-308949.9970000000 -514174.9950000000
-308825.0030000000 -514299.9980000000
-308699.9870000000 -514299.9870000000
-308574.9730000000 -514299.9540000000
-308449.9750000000 -514424.9580000000
-308324.9840000000 -514424.9790000000
-308199.9850000000 -514424.9840000000
-308074.9930000000 -514549.9820000000
-307950.0260000000 -514550.0360000000
-307824.9860000000 -514549.9840000000
-307699.9900000000 -514674.9830000000
-307574.9830000000 -514674.9800000000
-307449.9760000000 -514674.9550000000
-307324.9760000000 -514799.9550000000
-307199.9930000000 -514799.9850000000
-307075.0010000000 -514799.9970000000
-306949.9970000000 -514924.9970000000
-306824.9820000000 -514924.9650000000
-306700.0050000000 -514925.0150000000
-306575.0060000000 -515050.0100000000
-306450.0060000000 -515050.0160000000
-306324.9970000000 -515050.0040000000
-306199.9940000000 -515175.0000000000
-306075.0170000000 -515175.0380000000
-305949.9790000000 -515299.9620000000
-305824.9780000000 -515299.9560000000
-305699.9980000000 -515425.0060000000
-305574.9740000000 -515424.9560000000
-305450.0140000000 -515550.0280000000
-305325.0210000000 -515550.0280000000
-305200.0170000000 -515675.0340000000
-305200.0270000000 -515800.0420000000
-305074.9910000000 -515924.9890000000
-305074.9830000000 -516049.9790000000
-305074.9790000000 -516174.9580000000
-305200.0170000000 -516300.0270000000
-305325.0000000000 -516300.0090000000
-305449.9830000000 -516424.9710000000
-305575.0120000000 -516425.0210000000
-305699.9880000000 -516549.9740000000
-305825.0000000000 -516550.0030000000
-305950.0030000000 -516550.0150000000
-306075.0270000000 -516675.0450000000
-306200.0210000000 -516675.0300000000
-306324.9980000000 -516675.0030000000
-306449.9760000000 -516674.9540000000
-306574.9820000000 -516799.9640000000
-306699.9970000000 -516799.9880000000
-306824.9960000000 -516799.9990000000
-306949.9950000000 -516799.9870000000
-307074.9820000000 -516924.9780000000
-307200.0190000000 -516925.0390000000
-307324.9920000000 -516924.9900000000
-307449.9800000000 -517049.9590000000
-307574.9910000000 -517049.9820000000
-307700.0260000000 -517175.0380000000
-307825.0190000000 -517175.0410000000
-307824.9980000000 -517300.0010000000
-307949.9720000000 -517424.9590000000
-307950.0050000000 -517550.0120000000
-308074.9830000000 -517674.9700000000
-308075.0130000000 -517800.0210000000
-308074.9820000000 -517924.9750000000
-308075.0120000000 -518050.0120000000
-308074.9710000000 -518174.9560000000
-308200.0080000000 -518300.0240000000
-308199.9740000000 -518424.9620000000
-308199.9910000000 -518549.9880000000
-308200.0040000000 -518675.0090000000
-308200.0110000000 -518800.0260000000
-308200.0230000000 -518925.0320000000
-308325.0180000000 -519050.0230000000
-308325.0180000000 -519175.0330000000
-308325.0230000000 -519300.0340000000
-308325.0230000000 -519425.0300000000
-308325.0080000000 -519550.0260000000
-308450.0160000000 -519675.0280000000
-308450.0090000000 -519800.0170000000
-308449.9970000000 -519925.0020000000
-308449.9890000000 -520049.9770000000
-308574.9970000000 -520174.9920000000
-308574.9780000000 -520299.9710000000
-308699.9910000000 -520424.9850000000
-308699.9790000000 -520549.9580000000
-308824.9870000000 -520674.9770000000
-308825.0280000000 -520800.0430000000
-308949.9850000000 -520924.9680000000
-308950.0150000000 -521050.0380000000
-309074.9760000000 -521174.9630000000
-309075.0140000000 -521300.0260000000
-309199.9690000000 -521424.9560000000
-309200.0050000000 -521550.0180000000
-309325.0210000000 -521675.0410000000
-309324.9990000000 -521800.0090000000
-309450.0190000000 -521925.0310000000
-309449.9960000000 -522049.9980000000
-309575.0110000000 -522175.0250000000
-309574.9950000000 -522299.9850000000
-309700.0050000000 -522425.0180000000
-309699.9870000000 -522549.9760000000
-309825.0010000000 -522675.0090000000
-309824.9810000000 -522799.9660000000
-309825.0040000000 -522925.0180000000
-309949.9690000000 -523049.9600000000
-309949.9990000000 -523175.0050000000
-310075.0250000000 -523300.0410000000
-310074.9970000000 -523424.9910000000
-310200.0180000000 -523550.0310000000
-310199.9880000000 -523674.9800000000
-310325.0130000000 -523800.0200000000
-310324.9820000000 -523924.9680000000
-310450.0020000000 -524050.0130000000
-310449.9700000000 -524174.9600000000
-310449.9970000000 -524299.9900000000
-310450.0110000000 -524425.0209999999
-310450.0210000000 -524550.0460000000
-310449.9800000000 -524674.9669999999
-310449.9900000000 -524799.9770000000
-310449.9870000000 -524924.9880000000
-310449.9880000000 -525049.9880000000
-310449.9850000000 -525174.9830000000
-310449.9780000000 -525299.9730000000
-310449.9760000000 -525424.9520000000
-310450.0150000000 -525550.0250000000
-310575.0060000000 -525675.0230000000
-310574.9980000000 -525799.9960000000
-310574.9770000000 -525924.9690000000
-310575.0160000000 -526050.0260000000
-310700.0170000000 -526175.0310000000
-310699.9990000000 -526299.9920000000
-310824.9960000000 -526425.0020000000
-310824.9770000000 -526549.9620000001
-310949.9770000000 -526674.9710000000
-311075.0020000000 -526675.0030000000
-311200.0030000000 -526800.0000000000
-311325.0070000000 -526800.0120000000
-311449.9990000000 -526925.0030000000
-311574.9930000000 -526924.9900000000
-311699.9840000000 -527049.9690000000
-311825.0140000000 -527050.0310000000
-311949.9950000000 -527175.0020000000
-312075.0250000000 -527175.0340000000
-312199.9960000000 -527299.9990000000
-312325.0060000000 -527300.0120000000
-312449.9760000000 -527424.9660000000
-312574.9750000000 -527424.9540000000
-312700.0120000000 -527425.0250000000
-312824.9710000000 -527549.9640000000
-312950.0070000000 -527550.0050000000
-313075.0120000000 -527675.0310000000
-313199.9720000000 -527674.9600000000
-313324.9850000000 -527799.9680000000
-313449.9810000000 -527799.9720000000
-313574.9850000000 -527924.9740000000
-313700.0260000000 -527925.0470000000
-313825.0190000000 -528050.0429999999
-313949.9940000000 -528049.9980000000
-314074.9860000000 -528174.9830000000
-314200.0060000000 -528175.0070000000
-314325.0070000000 -528175.0200000000
-314449.9880000000 -528299.9910000000
-314574.9880000000 -528299.9740000000
-314700.0140000000 -528425.0330000001
-314824.9940000000 -528424.9970000000
-314950.0190000000 -528550.0450000000
-315074.9890000000 -528549.9850000000
-315200.0130000000 -528675.0209999999
-315325.0180000000 -528675.0370000000
-315450.0230000000 -528675.0300000000
-315574.9790000000 -528799.9590000000
-315700.0200000000 -528800.0280000000
-315824.9960000000 -528799.9860000000
-315949.9960000000 -528924.9960000000
-316075.0170000000 -528925.0240000000
-316200.0200000000 -528925.0410000000
-316325.0240000000 -528925.0370000000
-316450.0090000000 -529050.0250000000
-316575.0020000000 -529049.9970000000
-316699.9760000000 -529049.9570000001
-316824.9980000000 -529049.9950000000
-316950.0110000000 -529050.0159999999
-317075.0150000000 -529050.0209999999
-317200.0100000000 -529050.0100000000
-317324.9870000000 -529049.9870000000
-317450.0200000000 -529050.0360000000
-317574.9880000000 -529049.9760000000
-317699.9930000000 -529174.9990000000
-317825.0060000000 -529175.0080000000
-317950.0010000000 -529175.0070000000
-318074.9880000000 -529174.9889999999
-318200.0220000000 -529175.0480000000
-318325.0000000000 -529174.9920000000
-318450.0160000000 -529175.0180000000
-318575.0130000000 -529175.0340000000
-318700.0120000000 -529175.0270000000
-318825.0010000000 -529175.0050000000
-318949.9810000000 -529174.9660000000
-319075.0000000000 -529175.0100000000
-319200.0190000000 -529175.0320000000
-319325.0200000000 -529175.0429999999
-319450.0210000000 -529175.0330000001
-319575.0040000000 -529175.0120000000
-319699.9780000000 -529174.9740000000
-319825.0090000000 -529175.0080000000
-319950.0220000000 -529175.0320000000
-320075.0260000000 -529175.0390000000
-320200.0210000000 -529175.0300000000
-320325.0070000000 -529175.0040000000
-320449.9750000000 -529174.9680000000
-320574.9990000000 -529175.0040000000
-320699.9880000000 -529049.9790000001
-320824.9800000000 -529049.9780000000
-320949.9710000000 -529049.9560000000
-321075.0100000000 -529050.0110000001
-321199.9740000000 -528924.9680000000
-321324.9890000000 -528924.9810000000
-321449.9850000000 -528924.9840000001
-321574.9820000000 -528924.9650000000
-321699.9960000000 -528799.9870000000
-321825.0160000000 -528800.0250000000
-321949.9710000000 -528799.9540000000
-322074.9730000000 -528799.9600000000
-322200.0230000000 -528800.0429999999
-322325.0080000000 -528800.0170000000
-322449.9750000000 -528674.9660000000
-322574.9920000000 -528674.9910000000
-322700.0010000000 -528675.0000000000
-322825.0000000000 -528674.9930000000
-322949.9820000000 -528674.9760000000
-323075.0200000000 -528675.0290000000
-323199.9980000000 -528549.9970000000
-323325.0030000000 -528550.0150000000
-323450.0080000000 -528550.0120000000
-323574.9960000000 -528549.9980000000
-323700.0150000000 -528425.0360000000
-323824.9880000000 -528424.9750000000
-323949.9990000000 -528424.9960000000
-324075.0190000000 -528300.0360000000
-324200.0060000000 -528300.0159999999
-324324.9940000000 -528174.9860000000
-324450.0140000000 -528175.0170000000
-324575.0250000000 -528175.0330000001
-324700.0050000000 -528050.0100000000
-324824.9920000000 -528049.9840000001
-324949.9870000000 -527924.9880000000
-325075.0070000000 -527925.0140000000
-325200.0270000000 -527800.0400000000
-325325.0140000000 -527800.0300000000
-325450.0020000000 -527799.9980000000
-325575.0140000000 -527675.0320000000
-325699.9770000000 -527674.9590000000
-325825.0050000000 -527550.0200000000
-325950.0020000000 -527549.9980000000
-326074.9890000000 -527424.9939999999
-326200.0170000000 -527300.0360000000
-326325.0230000000 -527300.0460000000
-326450.0100000000 -527175.0230000000
-326449.9950000000 -527050.0000000000
-326575.0030000000 -526925.0140000000
-326574.9830000000 -526799.9650000000
-326700.0120000000 -526675.0170000000
-326700.0240000000 -526550.0470000000
-326574.9920000000 -526424.9840000001
-326449.9910000000 -526424.9790000001
-326325.0040000000 -526300.0050000000
-326199.9830000000 -526299.9830000000
-326075.0020000000 -526174.9950000000
-325950.0270000000 -526175.0429999999
-325824.9860000000 -526174.9830000000
-325699.9900000000 -526049.9840000001
-325574.9950000000 -526049.9939999999
-325449.9920000000 -526049.9880000000
-325324.9790000000 -526049.9660000000
-325200.0240000000 -525925.0429999999
-325075.0010000000 -525924.9980000000
-324950.0170000000 -525925.0350000000
-324824.9750000000 -525924.9580000000
-324699.9740000000 -525924.9630000000
-324575.0090000000 -525800.0110000001
-324449.9970000000 -525799.9930000000
-324324.9750000000 -525799.9600000000
-324200.0020000000 -525800.0020000000
-324075.0210000000 -525800.0290000000
-323949.9810000000 -525674.9600000000
-323824.9790000000 -525674.9700000000
-323699.9770000000 -525674.9570000001
-323575.0150000000 -525675.0270000000
-323450.0160000000 -525550.0340000000
-323324.9860000000 -525549.9880000000
-323200.0130000000 -525550.0130000000
-323075.0140000000 -525550.0330000001
-322950.0080000000 -525425.0159999999
-322825.0060000000 -525425.0080000000
-322699.9870000000 -525424.9889999999
-322574.9770000000 -525299.9550000000
-322450.0030000000 -525300.0060000001
-322325.0220000000 -525300.0400000000
-322199.9980000000 -525174.9950000000
-322075.0050000000 -525175.0060000001
-321949.9700000000 -525049.9580000000
-321825.0230000000 -525050.0379999999
-321700.0110000000 -525050.0100000000
-321575.0200000000 -524925.0420000000
-321449.9970000000 -524924.9910000000
-321325.0130000000 -524925.0209999999
-321200.0170000000 -524800.0370000000
-321075.0230000000 -524800.0440000000
-320950.0200000000 -524800.0350000000
-320825.0080000000 -524800.0090000000
-320699.9970000000 -524675.0060000001
-320574.9750000000 -524674.9570000001
-320449.9910000000 -524674.9900000000
-320324.9990000000 -524675.0070000000
-320199.9830000000 -524549.9790000001
-320074.9800000000 -524549.9730000000
-319950.0180000000 -524425.0280000000
-319950.0060000000 -524300.0070000000
-319824.9810000000 -524174.9760000000
-319825.0240000000 -524050.0480000000
-319700.0100000000 -523925.0110000000
-319699.9930000000 -523799.9890000000
-319699.9720000000 -523674.9610000000
-319824.9960000000 -523549.9930000000
-319825.0250000000 -523425.0330000000
-319950.0020000000 -523300.0150000000
-320075.0220000000 -523300.0280000000
-320200.0230000000 -523175.0310000000
-320324.9970000000 -523049.9950000000
-320450.0250000000 -523050.0380000000
-320574.9870000000 -523049.9720000000
-320700.0180000000 -522925.0300000000
-320825.0140000000 -522925.0140000000
-320949.9920000000 -522924.9880000000
-321075.0180000000 -522925.0380000000
-321199.9860000000 -522799.9730000000
-321324.9890000000 -522799.9810000000
-321449.9830000000 -522799.9730000000
-321575.0250000000 -522800.0410000000
-321700.0020000000 -522800.0000000000
-321825.0190000000 -522800.0410000000
-321949.9780000000 -522799.9670000000
-322074.9780000000 -522799.9750000000
-322199.9770000000 -522799.9610000000
-322325.0170000000 -522800.0290000000
-322449.9900000000 -522799.9880000000
-322575.0120000000 -522800.0240000000
-322700.0260000000 -522800.0430000000
-322824.9740000000 -522799.9530000000
-322950.0180000000 -522800.0380000000
-323075.0060000000 -522800.0080000000
-323199.9760000000 -522799.9680000000
-323324.9950000000 -522800.0040000000
-323450.0130000000 -522675.0240000000
-323575.0080000000 -522675.0170000000
-323699.9950000000 -522674.9950000000
-323824.9730000000 -522674.9560000000
-323950.0000000000 -522674.9940000000
-324075.0090000000 -522675.0210000000
-324200.0190000000 -522675.0260000000
-324325.0110000000 -522675.0210000000
-324450.0020000000 -522550.0120000000
-324574.9710000000 -522549.9640000000
-324699.9980000000 -522549.9880000000
-324824.9970000000 -522550.0060000000
-324949.9980000000 -522550.0030000000
-325075.0180000000 -522425.0350000000
-325199.9940000000 -522424.9900000000
-325325.0110000000 -522425.0270000000
-325449.9750000000 -522299.9670000000
-325574.9770000000 -522299.9570000000
-325700.0190000000 -522300.0280000000
-325824.9950000000 -522299.9900000000
-325950.0030000000 -522174.9980000000
-326075.0040000000 -522175.0170000000
-326200.0060000000 -522175.0140000000
-326324.9990000000 -522174.9950000000
-326449.9840000000 -522049.9830000000
-326575.0120000000 -522050.0150000000
-326700.0210000000 -522050.0350000000
-326825.0170000000 -521925.0190000000
-326950.0040000000 -521924.9980000000
-327074.9730000000 -521924.9670000000
-327200.0280000000 -521800.0430000000
-327324.9830000000 -521799.9640000000
-327449.9770000000 -521799.9670000000
-327574.9680000000 -521674.9580000000
-327700.0070000000 -521675.0050000000
-327825.0150000000 -521550.0220000000
-327949.9970000000 -521424.9980000000
-328074.9880000000 -521424.9840000000
-328199.9870000000 -521299.9850000000
-328325.0120000000 -521300.0220000000
-328449.9700000000 -521174.9570000000
-328574.9730000000 -521174.9520000000
-328700.0160000000 -521175.0290000000
-328824.9760000000 -521049.9640000000
-328949.9960000000 -521049.9990000000
-329075.0070000000 -521050.0180000000
-329200.0100000000 -521050.0200000000
-329325.0040000000 -521050.0070000000
-329449.9900000000 -521049.9780000000
-329575.0160000000 -521050.0300000000
-329699.9850000000 -521049.9690000000
-329824.9940000000 -521049.9890000000
-329949.9770000000 -520924.9610000000
-330075.0210000000 -520925.0310000000
-330199.9990000000 -520924.9940000000
-330325.0260000000 -520925.0330000000
-330449.9780000000 -520924.9690000000
-330574.9920000000 -520799.9820000000
-330699.9790000000 -520799.9680000000
-330825.0150000000 -520800.0310000000
-330949.9740000000 -520674.9520000000
-331074.9880000000 -520674.9730000000
-331200.0140000000 -520550.0160000000
-331324.9950000000 -520550.0020000000
-331449.9810000000 -520424.9780000000
-331575.0060000000 -520425.0080000000
-331700.0100000000 -520300.0110000000
-331824.9790000000 -520174.9780000000
-331825.0170000000 -520050.0320000000
-331950.0160000000 -519925.0290000000
-331949.9790000000 -519799.9710000000
-332075.0000000000 -519675.0040000000
-332075.0050000000 -519550.0170000000
-332199.9980000000 -519424.9880000000
-332199.9860000000 -519299.9810000000
-332199.9790000000 -519174.9620000000
-332200.0160000000 -519050.0350000000
-332199.9980000000 -518925.0060000000
-332199.9840000000 -518799.9660000000
-332200.0140000000 -518675.0170000000
-332325.0310000000 -518550.0410000000
-332324.9850000000 -518424.9800000000
-332325.0030000000 -518300.0000000000
-332325.0150000000 -518175.0150000000
-332325.0130000000 -518050.0310000000
-332200.0040000000 -517925.0100000000
-332200.0070000000 -517800.0190000000
-332200.0130000000 -517675.0170000000
-332200.0130000000 -517675.0170000000
-332200.0050000000 -517550.0150000000
-332200.0010000000 -517425.0020000000
-332199.9910000000 -517299.9840000000
-332074.9840000000 -517174.9840000000
-332074.9790000000 -517049.9600000000
-332075.0180000000 -516925.0270000000
-331950.0210000000 -516800.0290000000
-331824.9730000000 -516799.9590000000
-331699.9730000000 -516674.9540000000
-331574.9730000000 -516674.9530000000
-331450.0190000000 -516550.0370000000
-331325.0090000000 -516550.0130000000
-331199.9810000000 -516549.9800000000
-331075.0140000000 -516550.0160000000
-330950.0280000000 -516550.0420000000
-330824.9760000000 -516549.9600000000
-330699.9750000000 -516549.9540000000
-330575.0140000000 -516550.0290000000
-330449.9960000000 -516549.9910000000
-330325.0190000000 -516550.0340000000
-330199.9760000000 -516549.9690000000
-330074.9820000000 -516549.9790000000
-329949.9810000000 -516549.9740000000
-329825.0300000000 -516550.0440000000
-329699.9700000000 -516674.9620000000
-329574.9960000000 -516674.9900000000
-329450.0040000000 -516675.0080000000
-329325.0050000000 -516675.0090000000
-329199.9970000000 -516674.9940000000
-329074.9810000000 -516674.9630000000
-328949.9890000000 -516799.9930000000
-328825.0080000000 -516800.0110000000
-328700.0100000000 -516800.0200000000
-328575.0040000000 -516800.0110000000
-328449.9900000000 -516799.9870000000
-328325.0250000000 -516800.0390000000
-328199.9920000000 -516924.9890000000
-328074.9960000000 -516925.0040000000
-327950.0010000000 -516924.9970000000
-327825.0290000000 -517050.0390000000
-327700.0010000000 -517049.9950000000
-327574.9790000000 -517174.9760000000
-327449.9980000000 -517300.0020000000
-327324.9910000000 -517299.9820000000
-327200.0190000000 -517425.0400000000
-327074.9700000000 -517549.9580000000
-326949.9750000000 -517549.9680000000
-326825.0010000000 -517675.0040000000
-326700.0020000000 -517799.9990000000
-326575.0180000000 -517800.0390000000
-326449.9770000000 -517924.9680000000
-326325.0260000000 -518050.0400000000
-326199.9900000000 -518174.9790000000
-326075.0110000000 -518175.0170000000
-325949.9930000000 -518299.9820000000
-325824.9910000000 -518299.9770000000
-325699.9800000000 -518424.9730000000
-325575.0130000000 -518425.0190000000
-325449.9700000000 -518424.9610000000
-325324.9870000000 -518424.9740000000
-325200.0200000000 -518550.0360000000
-325075.0050000000 -518550.0130000000
-324949.9800000000 -518549.9720000000
-324825.0060000000 -518550.0080000000
-324700.0050000000 -518425.0110000000
-324575.0200000000 -518425.0240000000
-324450.0180000000 -518425.0250000000
-324325.0130000000 -518300.0120000000
-324325.0050000000 -518175.0140000000
-324200.0010000000 -518050.0030000000
-324074.9970000000 -517924.9890000000
-324074.9950000000 -517799.9880000000
-323949.9830000000 -517674.9820000000
-323949.9860000000 -517549.9750000000
-323824.9750000000 -517424.9710000000
-323699.9730000000 -517299.9580000000
-323575.0180000000 -517175.0400000000
-323450.0150000000 -517050.0220000000
-323450.0190000000 -516925.0280000000
-323325.0080000000 -516800.0180000000
-323199.9970000000 -516675.0040000000
-323074.9940000000 -516549.9830000000
-323074.9960000000 -516424.9970000000
-322949.9860000000 -516299.9830000000
-322824.9750000000 -516174.9660000000
-322700.0220000000 -516050.0390000000
-322574.9940000000 -516049.9910000000
-322449.9810000000 -515924.9620000000
-322324.9920000000 -515924.9890000000
-322199.9950000000 -515924.9980000000
-322074.9700000000 -515799.9580000000
-321950.0210000000 -515800.0360000000
-321825.0050000000 -515800.0060000000
-321700.0260000000 -515675.0460000000
-321574.9920000000 -515674.9970000000
-321450.0080000000 -515675.0240000000
-321324.9680000000 -515549.9550000000
-321199.9740000000 -515549.9580000000
-321074.9810000000 -515424.9760000000
-320949.9690000000 -515424.9610000000
-320825.0150000000 -515425.0160000000
-320700.0100000000 -515300.0230000000
-320574.9800000000 -515299.9660000000
-320449.9900000000 -515299.9920000000
-320324.9830000000 -515174.9810000000
-320199.9830000000 -515174.9820000000
-320074.9750000000 -515049.9610000000
-319950.0230000000 -515050.0310000000
-319825.0050000000 -514925.0050000000
-319699.9770000000 -514924.9640000000
-319575.0150000000 -514800.0200000000
-319449.9690000000 -514799.9600000000
-319325.0060000000 -514675.0060000000
-319200.0080000000 -514675.0140000000
-319074.9770000000 -514549.9630000000
-318950.0270000000 -514550.0390000000
-318824.9870000000 -514424.9830000000
-318700.0030000000 -514300.0160000000
-318575.0290000000 -514175.0410000000
-318449.9930000000 -514174.9960000000
-318325.0090000000 -514050.0160000000
-318200.0250000000 -513925.0330000000
-318074.9760000000 -513799.9590000000
-317949.9840000000 -513674.9750000000
-317824.9830000000 -513674.9810000000
-317699.9910000000 -513549.9860000000
-317574.9890000000 -513424.9930000000
-317449.9980000000 -513299.9920000000
-317324.9980000000 -513174.9930000000
-317325.0130000000 -513050.0170000000
-317200.0150000000 -512925.0190000000
-317075.0080000000 -512800.0240000000
-316950.0110000000 -512675.0200000000
-316949.9770000000 -512549.9540000000
-316824.9720000000 -512424.9560000000
-316699.9680000000 -512299.9560000000
-316575.0220000000 -512175.0440000000
-316450.0200000000 -512050.0370000000
-316449.9860000000 -511924.9840000000
-316324.9850000000 -511799.9780000000
-316199.9850000000 -511674.9680000000
-316074.9770000000 -511549.9610000000
-315950.0260000000 -511425.0430000000
-315824.9790000000 -511424.9720000000
-315700.0280000000 -511300.0430000000
-315575.0290000000 -511300.0390000000
-315450.0140000000 -511300.0240000000
-315324.9900000000 -511299.9920000000
-315200.0160000000 -511300.0350000000
-315074.9770000000 -511299.9680000000
-314949.9860000000 -511299.9770000000
-314824.9790000000 -511299.9740000000
-314700.0300000000 -511300.0410000000
-314575.0080000000 -511300.0040000000
-314449.9680000000 -511299.9550000000
-314324.9860000000 -511299.9760000000
-314199.9880000000 -511299.9850000000
-314074.9810000000 -511299.9760000000
-313950.0240000000 -511300.0440000000
-313825.0010000000 -511300.0010000000
-313700.0190000000 -511300.0390000000
-313574.9810000000 -511299.9620000000
-313449.9830000000 -511299.9660000000
-313324.9680000000 -511299.9570000000
-313200.0110000000 -511300.0190000000
-313074.9800000000 -511299.9760000000
-312950.0070000000 -511300.0040000000
-312825.0020000000 -511425.0010000000
